#VERSION:0.81;
#TITLE:Ultramania;
#SUBTITLE:;
#ARTIST:Seo Taiji;
#TITLETRANSLIT:;
#SUBTITLETRANSLIT:;
#ARTISTTRANSLIT:;
#GENRE:;
#ORIGIN:;
#CREDIT:Andamiro;
#BANNER:514_B.png;
#BACKGROUND:514.png;
#PREVIEWVID:514_P.mpg;
#CDTITLE:;
#MUSIC:514.mp3;
#OFFSET:-0.760000;
#SAMPLESTART:61.689583;
#SAMPLELENGTH:12.000000;
#SELECTABLE:YES;
#SONGTYPE:ARCADE;
#SONGCATEGORY:K-POP;
#VOLUME:108;
#BPMS:0.000=83.000;
#TIMESIGNATURES:0.000=4=4;
#TICKCOUNTS:0.000=2;
#COMBOS:0.000=1;
#SPEEDS:0.000=1.000=0.000=0;
#SCROLLS:0.000=1.000;
#LABELS:0.000=Song Start;
#LASTSECONDHINT:89.579208;
#BGCHANGES:-1.700=514.mpg=1.000=0=0=0=StretchNoLoop====,
99999=-nosongbg-=1.000=0=0=0 
;

#NOTEDATA:;
#STEPSTYPE:pump-single;
#DESCRIPTION:S2;
#DIFFICULTY:Edit;
#METER:2;
#RADARVALUES:0.124391,0.129495,0.000000,0.000000,0.000000,78.000000,0.000000,0.000000,0.000000,0.000000,0.000000,0.000000,0.000000,0.124391,0.129495,0.000000,0.000000,0.000000,78.000000,0.000000,0.000000,0.000000,0.000000,0.000000,0.000000,0.000000;
#OFFSET:-0.760000;
#BPMS:0.000000=83.000000
;
#STOPS:;
#DELAYS:;
#WARPS:;
#TIMESIGNATURES:0.000000=4=4
;
#TICKCOUNTS:0.000000=2
;
#COMBOS:0.000000=1
;
#SPEEDS:0.000000=1.000000=0.000000=0
;
#SCROLLS:0.000000=1.000000
;
#FAKES:;
#LABELS:0.000000=Song Start
;
#NOTES:
00000
00000
00000
00000
,
00000
00000
00000
00100
,
00000
00000
00000
00100
,
00000
00100
00000
00000
,
10000
10000
00001
00001
,
10000
10000
00001
00100
,
00001
00001
10000
00100
,
00000
00100
00000
00000
,
10000
00000
00001
00000
,
10000
10000
10000
00000
,
00001
00001
00001
00000
,
00010
00000
01000
00000
,
00010
00001
01000
10000
,
00001
00000
01000
01000
,
00001
00000
10000
00100
,
10000
00000
00010
00010
,
10000
00001
00100
00000
,
00000
01000
00000
01000
,
00000
01000
01000
01000
,
01000
00010
00000
00010
,
00000
00010
00010
00010
,
00010
10000
00000
00010
,
00010
10000
00000
00001
,
00100
00001
00000
01000
,
01000
00001
10000
00100
,
00000
01000
00000
01000
,
01000
00001
00000
00001
,
00001
00010
00000
00010
,
00010
10000
00000
10000
,
10000
00000
00000
00000
;


#NOTEDATA:;
#STEPSTYPE:pump-single;
#DESCRIPTION:S4;
#DIFFICULTY:Easy;
#METER:4;
#RADARVALUES:0.212103,0.194242,0.178613,0.000000,0.000000,117.000000,16.000000,0.000000,0.000000,0.000000,0.000000,0.000000,0.000000,0.212103,0.194242,0.178613,0.000000,0.000000,117.000000,16.000000,0.000000,0.000000,0.000000,0.000000,0.000000,0.000000;
#OFFSET:-0.760000;
#BPMS:0.000000=83.000000
;
#STOPS:;
#DELAYS:;
#WARPS:;
#TIMESIGNATURES:0.000000=4=4
;
#TICKCOUNTS:0.000000=2
;
#COMBOS:0.000000=1
;
#SPEEDS:0.000000=1.000000=0.000000=0
;
#SCROLLS:0.000000=1.000000
;
#FAKES:;
#LABELS:0.000000=Song Start
;
#NOTES:
00000
00000
00000
00000
,
00000
00000
00000
01001
,
00000
00000
00000
01010
,
00000
01001
00000
00000
,
00010
00010
01000
01000
,
00010
00010
01000
01010
,
01000
01000
00010
01010
,
01000
01010
00010
00010
,
01000
00000
01000
00000
00000
00100
01000
00010
,
10000
00000
10000
00000
10000
00000
10000
00001
,
10000
10000
10000
00100
,
00010
00001
00010
00001
,
01000
00100
10000
10000
,
01001
01000
01000
01000
,
01010
00010
00010
00010
,
10010
10000
10000
10000
,
10001
00000
00100
00000
01000
00010
00000
00000
,
00000
00000
00010
00100
00010
10000
00100
00000
,
00100
00000
01000
00100
01000
00100
01000
00000
,
00001
01000
10000
01000
,
10000
00010
00100
00001
,
00001
00000
10010
00000
00010
00100
00010
00100
,
10000
10001
00001
00001
,
00001
00000
01001
00000
00001
00100
00001
00100
,
01000
00000
01010
00000
00100
00000
00010
01000
,
00000
00000
00100
00000
00100
00000
01000
00100
,
00001
00000
00100
00000
00100
00000
10000
00100
,
00010
00000
00100
00000
00100
00000
00001
00100
,
01100
00000
00100
00000
00100
00000
01000
00100
,
00101
00000
00000
00000
;


#NOTEDATA:;
#CHARTNAME:Money Sink;
#STEPSTYPE:pump-single;
#DESCRIPTION:UCS S8;
#DIFFICULTY:Medium;
#METER:8;
#RADARVALUES:0.416233,0.369925,0.424207,0.357227,0.128378,191.000000,38.000000,32.000000,0.000000,0.000000,0.000000,0.000000,0.000000,0.416233,0.369925,0.424207,0.357227,0.128378,191.000000,38.000000,32.000000,0.000000,0.000000,0.000000,0.000000,0.000000;
#CREDIT:RIME;
#OFFSET:-0.760000;
#BPMS:0.000000=83.000000
;
#STOPS:;
#DELAYS:;
#WARPS:;
#TIMESIGNATURES:0.000000=4=4
;
#TICKCOUNTS:0.000000=2
;
#COMBOS:0.000000=1
;
#SPEEDS:0.000000=1.000000=0.000000=0
;
#SCROLLS:0.000000=1.000000
,66.500000=0.500000
,69.000000=1.000000
;
#FAKES:;
#LABELS:0.000000=Song Start
;
#NOTES:
00000
00000
00000
00000
,
00000
00000
00000
00000
00000
00000
20002
30003
,
00000
00000
00000
00000
00000
00000
20002
30003
,
00000
00000
20002
30003
00000
00000
10000
00001
,
01000
00000
00100
01000
00100
00000
01000
00100
,
00010
00000
00001
00100
00001
00000
20002
30003
,
10000
00000
00010
10000
00010
00000
02020
03030
,
01000
00001
20002
30003
10000
00010
01000
10000
,
00100
00100
00001
00000
00100
00101
10001
10100
,
10010
00000
10010
00000
10010
00010
01000
00001
,
01001
00000
01001
00000
01001
00001
10000
00010
,
00021
00100
10030
00010
00021
00100
10030
00010
,
01010
00000
01001
00000
00001
00010
00100
01000
,
01020
00000
00001
00031
00010
01000
10000
00010
,
00012
00000
01000
01003
00001
10000
00010
01000
,
02010
00000
10000
13000
01000
00010
00001
00010
,
00021
00000
01000
01030
00010
10010
00000
00000
,
10001
00001
01000
00100
01100
00000
01000
00010
,
01010
00000
00000
00000
00000
00000
00000
00000
00000
00000
00000
00000
00010
00000
00000
00000
10000
00000
00000
00000
00100
00000
00000
00000
01000
00000
00000
00000
00001
00000
00000
00000
00100
00000
00000
00000
00000
00000
00000
00010
00000
00000
00000
00000
00000
01000
00000
00000
,
00000
00100
00000
00000
02001
00000
00100
00000
13000
00000
01000
00000
02001
00000
00100
00000
,
13000
01000
01001
00000
00001
10000
00010
00001
,
00100
10000
10002
00000
00010
00013
00001
01000
,
00010
10000
12000
00000
00010
03010
01000
10000
,
00100
01000
21000
00000
01000
31000
10000
00100
,
00001
10000
10002
00000
00010
00013
00001
01001
,
00001
00000
01001
00000
00002
00000
00000
00000
10003
00001
10000
00001
00000
10000
00000
10000
,
00001
00000
00001
00000
20000
00000
00000
00000
30001
10000
00001
10000
00000
00001
00000
00001
,
10000
00000
10000
00000
10020
00000
00000
00000
10030
00010
10000
00010
00000
10000
00000
10000
,
00010
00000
01000
00000
02010
00000
00000
00000
03010
01000
00010
01000
00000
00010
00000
00010
,
01000
00100
02000
03100
02000
03010
02000
03100
,
02000
03010
00000
00000
00000
00000
00000
00000
;


#NOTEDATA:;
#STEPSTYPE:pump-single;
#DESCRIPTION:S11;
#DIFFICULTY:Hard;
#METER:11;
#RADARVALUES:0.411448,0.391833,0.267920,0.000000,0.379553,234.000000,24.000000,0.000000,0.000000,0.000000,0.000000,0.000000,0.000000,0.411448,0.391833,0.267920,0.000000,0.379553,234.000000,24.000000,0.000000,0.000000,0.000000,0.000000,0.000000,0.000000;
#OFFSET:-0.760000;
#BPMS:0.000000=83.000000
;
#STOPS:;
#DELAYS:;
#WARPS:;
#TIMESIGNATURES:0.000000=4=4
;
#TICKCOUNTS:0.000000=4
;
#COMBOS:0.000000=1
;
#SPEEDS:0.000000=1.000000=0.000000=0
;
#SCROLLS:0.000000=1.000000
;
#FAKES:;
#LABELS:0.000000=Song Start
;
#NOTES:
00000
00000
00000
00000
,
00000
00000
00000
00000
,
00010
00010
00000
00100
10000
00000
10000
00000
10000
00010
01000
00001
10001
00000
00000
00000
,
10000
01000
00010
00100
10001
00000
00000
00000
00010
00100
00000
10000
00100
00000
00001
00000
,
01000
00100
00000
10000
00001
00000
00001
00000
00010
00100
00000
00001
10000
00000
10000
00000
,
01000
00100
00000
10000
00100
00000
00100
00000
01010
00000
00010
00100
01000
00000
00000
00000
,
01000
00100
00000
00010
00100
00000
01000
00000
00001
00001
00000
10000
00010
00000
00000
00000
,
10000
10000
00000
00001
01000
00000
00000
00000
00010
00100
00000
00100
10000
00000
00001
00000
,
00100
00000
00000
00000
00100
00000
00000
00000
00100
10000
00001
00000
01000
00000
01000
00000
,
00010
00000
00000
00000
00010
00000
00000
00000
00010
00000
00100
01000
10000
01000
10000
00000
,
01000
00000
00000
00000
01000
00000
00000
00000
01000
00000
00100
00010
00001
00010
00001
00010
,
00001
00000
00001
00100
00010
00000
00010
00100
00010
00000
00001
00100
00010
00000
00010
00100
,
00010
00000
00000
00000
00010
00000
00000
00000
00010
00000
00000
00000
01000
00100
10000
00000
,
01010
00000
00100
00100
01010
00100
10001
00000
,
01000
00000
00000
00000
00100
00000
00000
00000
00010
00100
00001
00100
00010
00000
00000
00000
,
00010
00000
00000
00000
01000
10000
01000
00000
00100
00000
00000
00000
10001
00000
00000
00000
,
10001
00000
00000
00000
01000
01000
00010
00010
00100
00001
10000
00000
00000
00000
00000
00000
,
00000
00000
01000
10000
00001
00000
00010
00001
,
10000
00000
10001
00001
10001
10000
10001
00001
,
10001
10000
11000
00100
00011
00000
00011
00100
,
11000
00000
00000
00000
00100
00000
00000
00000
00100
00000
00000
00000
00100
00000
01000
00010
,
00000
01000
00000
00000
00100
00000
00000
00000
01000
01000
00010
00010
01010
00000
00100
00000
,
10001
00000
00000
00000
00100
00000
00000
00000
00010
00010
01000
01000
00010
01000
00010
01000
,
00010
01000
00010
01000
00100
00000
00000
00000
01000
01000
00010
00010
01010
00000
00100
00000
,
10001
00000
00000
00000
00100
00000
00000
00000
00100
00000
00100
00000
00010
01000
00001
00000
,
00000
00000
00000
00000
00001
00100
00001
00100
00010
00100
00010
01000
00100
00010
00100
01000
,
00100
00000
10001
00000
10000
00100
10000
00100
01000
00100
01000
00010
00100
01000
00100
00010
,
00100
10001
00010
10000
01000
00001
00100
00001
,
01000
00000
00000
00000
10000
01000
00100
00000
00001
00010
00100
00000
00100
00000
00100
00000
,
10010
00100
01001
00000
00100
00000
00000
00000
00000
00000
00000
00000
00000
00000
00000
00000
;


#NOTEDATA:;
#CHARTNAME:Single 13 UCS;
#STEPSTYPE:pump-single;
#DESCRIPTION:SINGLE13 UCS;
#DIFFICULTY:Edit;
#METER:13;
#RADARVALUES:0.596441,0.552724,0.290247,0.245593,0.747943,325.000000,26.000000,22.000000,0.000000,1.000000,0.000000,0.000000,0.000000,0.596441,0.552724,0.290247,0.245593,0.747943,325.000000,26.000000,22.000000,0.000000,1.000000,0.000000,0.000000,0.000000;
#CREDIT:Extra bootleg;
#OFFSET:-0.760000;
#BPMS:0.000000=83.000000
;
#STOPS:;
#DELAYS:;
#WARPS:;
#TIMESIGNATURES:0.000000=4=4
;
#TICKCOUNTS:0.000000=8
;
#COMBOS:0.000000=1
;
#SPEEDS:0.000000=1.000000=0.000000=0
;
#SCROLLS:0.000000=1.000000
;
#FAKES:;
#LABELS:0.000000=Song Start
;
#NOTES:
00001
10000
00000
00010
01000
00000
00001
10000
00001
10000
00001
10000
00100
00000
00100
00000
,
01000
00010
00000
10000
00001
00000
01000
00010
01000
00010
01000
00010
00200
00000
00300
00000
,
00001
10000
00000
00010
01000
00000
00001
10000
00001
10000
00001
10000
00200
00000
00300
00000
,
01000
00000
00010
00000
01000
00000
00010
00000
00200
00000
00000
00000
00300
00000
00000
00000
00010
00000
01000
00000
00010
00000
01000
00000
00001
10000
00001
10000
00001
10000
00001
10000
,
00001
00000
10000
00000
00000
00000
00010
00000
01000
00000
00000
00000
00100
00000
00000
00000
10000
00000
00001
00000
01000
00010
01000
00010
01000
00000
00000
00000
01010
00000
00000
00000
,
00001
10000
00000
00010
01000
00000
00001
10000
00010
01000
00001
10000
00200
00000
00300
00000
,
01000
00010
00000
10000
00001
00000
01000
00010
10000
00001
01000
00010
00200
00000
00300
00000
,
00001
10000
00010
01000
00200
00000
00300
00000
10000
00001
01000
00010
00100
00000
00100
00000
,
00000
00000
00000
00000
00000
00000
00000
00000
00000
00000
00000
00000
00000
00000
00000
00000
00000
00000
00000
00000
00100
00000
00000
00000
00001
00000
10000
00100
10000
00000
00000
00000
,
00010
00000
10000
10000
00010
00000
10000
10000
00010
00000
01000
00100
01000
00001
00010
00001
,
10000
00000
00010
00010
10000
00000
00010
00010
10000
00000
00100
01000
00100
10000
00100
01000
,
00010
00000
00100
00001
10000
00001
00100
10000
00000
00000
01000
00010
01000
00001
00100
10000
,
00000
00000
00000
00000
01000
00100
10000
00000
00000
00000
00000
00000
00001
10000
00100
00001
,
00022
00000
00000
00033
00010
00100
00001
01000
00100
00000
10000
00000
10001
00000
10001
00000
,
00022
00000
00000
00033
00001
00010
00001
00100
00000
00010
01000
00000
10001
00000
10001
00000
,
00022
00000
00000
00033
00010
00100
00000
01000
00100
00000
10000
00000
10001
00000
10001
00000
,
00022
00000
00000
00033
00000
00001
00010
00100
01000
10000
00100
00000
00000
00000
00000
00000
,
00001
00000
10000
00000
00100
00000
00100
00000
01010
00010
00100
00000
00001
00000
00001
00000
,
10001
10000
00100
00000
01000
00000
01000
00000
01010
00010
00100
00000
00100
00000
00100
00010
,
00100
00001
00100
00010
01000
00000
00100
10000
00001
10000
00100
00001
00000
00000
00010
01000
,
00010
10000
00100
00001
00000
00000
00000
00000
00010
00100
00001
00000
00000
00000
00000
00000
,
10000
00001
00100
10000
22000
00000
00000
33000
01000
00100
10000
00010
00100
00000
00001
00000
,
10001
00000
10001
00000
22000
00000
00000
33000
10000
01000
10000
00100
00000
01000
00010
00000
,
10001
00000
10001
00000
22000
00000
00000
33000
01000
00100
00000
00010
00100
00000
00001
00000
,
10001
00000
10001
00000
22000
00000
00000
33000
00000
10000
01000
00100
00010
00001
00100
00000
,
10000
00000
00000
00000
10000
00000
00000
00000
00001
00000
00010
00000
00100
00000
00010
00000
00001
00000
01000
00000
10000
00000
00100
00000
10000
01000
00100
00000
10000
00000
01000
00000
,
00100
00000
00010
00000
00001
00000
00100
00000
00001
00000
00010
00000
00100
00000
00001
00000
00010
00000
00001
00000
00100
00000
00010
00000
10000
00100
01000
00000
10000
00000
00100
00000
,
10000
00000
01000
00000
00100
00000
10000
00000
01000
00000
00100
00000
00010
00000
00001
00000
00010
00100
00001
00000
00010
00000
00001
00000
00100
00000
00010
00000
00001
00000
00100
00000
,
10000
01000
10000
00100
01000
10000
00100
00001
00010
00001
00100
00010
00001
00100
10000
00100
,
10001
10101
00000
00000
00000
00000
00000
00000
;


#NOTEDATA:;
#STEPSTYPE:pump-single;
#DESCRIPTION:S18 UCS;
#DIFFICULTY:Edit;
#METER:18;
#RADARVALUES:1.000000,1.000000,1.000000,0.792596,1.000000,471.000000,103.000000,71.000000,0.000000,34.000000,0.000000,0.000000,0.000000,1.000000,1.000000,1.000000,0.792596,1.000000,471.000000,103.000000,71.000000,0.000000,34.000000,0.000000,0.000000,0.000000;
#CREDIT:KahruNYA;
#OFFSET:-0.760000;
#BPMS:0.000000=83.000000
;
#STOPS:;
#DELAYS:;
#WARPS:;
#TIMESIGNATURES:0.000000=4=4
;
#TICKCOUNTS:0.000000=16
;
#COMBOS:0.000000=1
;
#SPEEDS:0.000000=1.000000=0.000000=0
,99.500000=1.330000=1.500000=0
;
#SCROLLS:0.000000=1.000000
,32.250000=0.000000
,32.500000=1.000000
,32.750000=0.000000
,33.000000=1.000000
,33.250000=0.000000
,33.500000=1.000000
,33.750000=0.000000
,34.000000=1.000000
,34.250000=0.000000
,34.500000=1.000000
,52.000000=1.500000
,53.000000=1.000000
,56.000000=1.500000
,57.000000=1.000000
,60.000000=1.500000
,61.000000=1.000000
,64.000000=1.500000
,64.500000=1.000000
,66.500000=100.000000
,66.625000=0.500000
,68.000000=1.000000
,85.000000=1.500000
,86.000000=1.000000
,89.000000=1.500000
,90.000000=1.000000
,93.000000=1.500000
,94.000000=1.000000
,97.000000=1.500000
,97.500000=1.000000
,116.500000=0.000000
,122.500000=100.000000
,122.750000=1.000000
;
#FAKES:;
#LABELS:0.000000=Song Start
;
#NOTES:
00000
00000
00000
00000
,
00000
00000
00000
00000
00000
00000
00000
00000
00000
00000
00000
00000
00000
00000
00000
00000
00000
00000
00000
00000
00000
00000
00000
00000
02220
00000
00000
00000
00000
03330
00000
00000
,
01010
00000
00010
00000
00100
00000
00001
00000
10100
00000
00001
00000
00100
00000
00010
00000
00101
00000
00010
00100
00010
00100
00001
00000
20202
00000
00000
00000
00000
30303
00000
00000
,
10001
00000
10000
00000
00100
01000
10000
00000
22200
00000
00000
00000
00000
33300
00000
00000
01100
00000
01000
00000
00001
00000
00100
00000
00010
01000
00100
01000
00010
00100
00001
10000
,
00100
00000
01000
00000
00010
00100
00010
00000
00110
00000
00000
00000
10100
00000
00000
00000
10000
00000
00001
00000
00100
00010
01000
00000
01100
00000
00000
00000
01101
00000
00000
00000
,
10010
00000
10000
00000
00100
00000
00001
00000
01100
00000
00001
00000
00010
00000
00100
00000
00001
00000
00010
00000
00100
00000
01000
00000
02220
00000
00000
00000
00000
03330
00000
00000
,
01010
00000
01000
00000
00100
00000
10000
00000
00101
00000
10000
00000
00100
00000
01000
00000
10100
00000
01000
00100
01000
00100
10000
00000
20202
00000
00000
00000
00000
30303
00000
00000
,
10001
00000
00001
00000
00100
00010
00001
00000
00222
00000
00000
00000
00000
00333
00000
00000
00010
00100
00010
00000
10000
00000
00100
00000
01000
00100
01000
00000
00110
00000
01010
00000
,
00000
00000
00000
00000
00000
00000
00000
00000
00000
00000
00000
00000
00000
00000
00000
00000
00000
00000
00000
00000
00100
00000
00000
00000
01010
00000
00010
00100
00001
00000
00001
00000
,
00110
00001
00100
00010
01100
00010
00100
00001
00110
00001
00100
00010
00001
00001
00100
10000
,
00110
01000
00100
10000
01100
10000
00100
01000
00110
01000
00100
10000
00000
10000
00001
00100
,
00020
00000
01100
00030
00100
00001
10000
00100
02000
00000
00110
03000
10000
00100
00001
10000
,
00100
00000
00100
00100
10001
01000
00010
00100
00002
00100
10003
02000
00100
03010
00100
00001
,
01000
00110
01000
00110
01000
00110
01000
00110
01000
00000
00010
00000
00100
00000
00001
00000
00110
00000
10000
00000
00110
00000
00001
00000
00100
00000
00010
01000
00100
00000
10000
00000
,
00010
01100
00010
01100
00010
01100
00010
01100
00010
00000
00001
00000
00100
00000
10000
00000
01100
00000
00001
00000
01100
00000
10000
00000
00010
00000
00100
00001
01000
00000
00100
00000
,
10000
01100
10000
01100
10000
01100
10000
01100
10000
00000
01000
00000
00100
00000
00010
00000
10010
00000
00100
00000
01001
00000
01000
00000
00100
00000
00100
10000
00010
00000
00100
00000
,
00001
00110
00001
00110
00001
00000
00010
00000
00100
00000
10000
00000
01000
00000
00001
00000
00010
00000
01000
00000
00100
00000
00000
00000
00000
00000
00000
00000
00000
00000
00000
00000
,
00100
00000
00000
00000
00100
00000
00000
00000
01100
00010
00000
00000
00110
01000
00000
00000
10100
00000
00001
00000
00100
00000
00010
00000
01100
00000
00110
00000
01100
00000
01000
00000
,
00101
00001
00100
10000
02000
00100
03001
00100
00020
00100
10030
00100
01000
00010
10000
00001
,
00100
00000
00010
00000
00001
00000
00100
00000
20000
00220
00000
30000
00300
00030
00000
00000
00010
00000
01000
00000
10000
00000
00100
00000
00002
02200
00000
00003
00300
03000
00000
00000
,
01000
00010
00001
00100
10100
00010
01000
00100
00101
01000
00010
00100
10100
00101
10000
00100
,
01000
00000
10000
01000
00100
00000
10000
00000
00010
10100
00010
10100
00010
10100
00010
10100
00010
00000
00100
00000
00001
00000
01100
00000
00010
00000
00101
00000
00010
00000
00100
00000
,
00001
00000
00001
10000
00100
00000
01000
00000
10000
01000
10000
01000
10000
01000
10000
01000
10000
00000
00100
00000
00001
00000
10100
00000
00001
00000
00100
00000
00010
00000
01100
00000
,
00000
00000
01000
00010
00100
00000
00001
00000
01000
00101
01000
00101
01000
00101
01000
00101
01000
00000
00100
00000
10000
00000
00010
00000
10110
00000
00000
00000
01101
00000
00000
00000
,
10110
00000
10000
00001
00100
00000
00010
00000
00001
00010
00001
00010
00001
00000
00100
00000
10000
00000
00110
00000
10000
00000
00001
00000
01100
00000
00001
00000
00020
00000
00030
00000
,
00100
00000
01000
00000
00020
00000
00030
00000
00100
00010
01000
00100
01000
00010
00100
00001
10000
00000
00100
01000
00010
00000
00100
00000
00001
00010
00100
00000
00010
00001
00100
00000
,
00111
00000
00000
00000
00111
00000
00000
00000
00100
00001
10000
00100
10000
00001
00100
00010
01000
00000
00100
10000
00010
00000
00100
00000
01000
10000
00100
00000
10000
00100
01000
00000
,
11100
00000
00000
00000
11100
00000
00000
00000
01000
00010
00100
00001
10000
00100
10000
00001
00100
00000
00010
01000
00100
00000
10000
00000
00001
00100
00010
00001
00010
00100
00001
00000
,
00111
00000
00000
00000
00111
00000
00000
00000
00100
00001
01000
00010
00100
00001
10000
00100
01000
00000
00010
00100
00001
01000
00010
10000
01000
00100
00010
01000
00100
00010
00001
00000
,
01101
00000
00000
00000
20220
30330
00000
00000
20220
30330
00000
00000
20220
30330
00000
00000
20220
30330
00000
00000
20220
30330
00000
00000
20220
30330
00000
00000
20220
30330
00000
00000
,
20220
30330
00000
00000
20220
30330
00000
00000
20220
30330
00000
00000
20220
30330
00000
00000
20220
30330
00000
00000
20220
30330
00000
00000
00000
00000
00000
00000
00000
00000
00000
00000
;


#NOTEDATA:;
#STEPSTYPE:pump-double;
#DESCRIPTION:D4;
#DIFFICULTY:Edit;
#METER:4;
#RADARVALUES:0.208914,0.227592,0.290247,0.000000,0.000000,105.000000,26.000000,0.000000,0.000000,0.000000,0.000000,0.000000,0.000000,0.208914,0.227592,0.290247,0.000000,0.000000,105.000000,26.000000,0.000000,0.000000,0.000000,0.000000,0.000000,0.000000;
#OFFSET:-0.760000;
#BPMS:0.000000=83.000000
;
#STOPS:;
#DELAYS:;
#WARPS:;
#TIMESIGNATURES:0.000000=4=4
;
#TICKCOUNTS:0.000000=2
;
#COMBOS:0.000000=1
;
#SPEEDS:0.000000=1.000000=0.000000=0
;
#SCROLLS:0.000000=1.000000
;
#FAKES:;
#LABELS:0.000000=Song Start
;
#NOTES:
0000000000
0000000000
0000000000
0000000000
,
0000000000
0000000000
0000000000
0100100000
,
0000000000
0000000000
0000000000
0000010010
,
0000000000
0000110000
0000000000
0000000000
,
0001000000
0001000000
0000001000
0000001000
,
0001000000
0001000000
0000001000
0001001000
,
0001000000
0001000000
0000001000
0001001000
,
0001000000
0001001000
0000001000
0000001000
,
0001000000
0000000000
0000000000
0000000000
0000000000
0000001000
0001000000
0000100000
,
1000000000
0000000000
1000000000
0000000000
1000000000
0000000000
1000000000
0000010000
,
0000100000
0000100000
0000100000
0000000000
,
0010100000
0000000000
0000010100
0000000000
,
0000000010
0000001000
0000000001
0000000001
,
0000001001
0000001000
0000001000
0000001000
,
0001001000
0001000000
0001000000
0001000000
,
1001000000
1000000000
1000000000
1000000000
,
1000100000
0000000000
0010000000
0000000000
0001000000
0000001000
0000000000
0000000000
,
0000000000
0000000000
0000001000
0000000000
0000000100
0000000000
0001000000
0000001000
,
0001000000
0000000000
0001000000
0000000000
0010000000
0000000000
0000001000
0001000000
,
0000001000
0000001100
0000000000
0011000000
,
0000000000
0100000000
0001000000
1000000000
,
1000000000
1001000000
0001000000
0001000000
,
0001000000
0001001000
0000001000
0000001000
,
0000001000
0000001001
0000000001
0000000001
,
0000000001
0000000000
0000010001
0000000000
0000000100
0000000000
0000001000
0001000000
,
0000000000
0000100000
0010000000
0010000000
,
1100000000
1100000000
1000000000
0000000000
0010000000
0000000000
0010000000
0000000000
,
0001100000
0001100000
0000010000
0000000000
0000000100
0000000000
0000000100
0000000000
,
0000000011
0000000011
0000000001
0000000000
0000000100
0000000000
0000000100
0000000000
,
0000011000
0001100000
0000000000
0000000000
0000000000
0000000000
0000000000
0000000000
;


#NOTEDATA:;
#CHARTNAME:Money Sarlaac;
#STEPSTYPE:pump-double;
#DESCRIPTION:UCS D9;
#DIFFICULTY:Edit;
#METER:9;
#RADARVALUES:0.349253,0.326527,0.301410,0.312573,0.173032,164.000000,27.000000,28.000000,0.000000,0.000000,0.000000,0.000000,0.000000,0.349253,0.326527,0.301410,0.312573,0.173032,164.000000,27.000000,28.000000,0.000000,0.000000,0.000000,0.000000,0.000000;
#CREDIT:RIME;
#NOTES:

0000000000
0000000000
0000000000
0000000000
,  
0000000000
0000000000
0000000000
0000000000
0000000000
0000000000
0000220000
0000330000
,  
0000000000
0000000000
0000000000
0000000000
0000000000
0000000000
0002002000
0003003000
,  
0000000000
0000000000
0000220000
0000330000
0000000000
0000000000
0000010000
0001000000
,  
0010000000
0000000000
0001000000
0010000000
0100000000
0000000000
0001000000
0000000000
,  
0100000000
0000000000
0001000000
0000100000
0000010000
0000000000
0000220000
0000330000
,  
0000010000
0000000000
0000100000
0000010000
0001000000
0000000000
0002002000
0003003000
,  
0000001000
0000100000
0000220000
0000330000
0000010000
0001000000
0010000000
0100000000
,  
0001000000
0000000000
0001000000
0000000000
0001000000
0000100000
0001000000
0000100000
,  
0000010000
0000000000
0000010000
0000000000
0000010000
0000001000
0000010000
0000001000
,  
0000000100
0000000000
0000000100
0000000000
0000010000
0000000100
0000010000
0000000100
,  
0000002000
0000000010
0000003001
0000001000
0000000020
0000001000
0000010030
0000000010
,  
0000010010
0000000000
0000101000
0000000000
0000001000
0001000000
0000010000
0000100000
,  
0000120000
0000000000
0001030000
0000010000
0001000000
0000100000
0010000000
0000000000
,  
0010200000
0000000000
0000000000
0000000000
0100300000
0000000000
0000000000
0100000000
0000000000
0000000000
0000100000
0000000000
0000000000
1000000000
0000000000
0000000000
,  
2000100000
0000000000
0001000000
3001000000
1000000000
0001000000
0100000000
0000000000
,  
0201000000
0000000000
0000000000
0000100000
0000000000
0300100000
0000000000
0000000000
0100000000
0000000000
0000100000
0000000000
0000000000
0000000000
0000000000
0000000000
,  
1000100000
1000000000
0001000000
0001000000
0001000000
0000000000
0100000000
0100000000
,  
0100000000
0000000000
0000000000
0000000000
0000000000
0000000000
0000000000
0000000000
0000000000
0000000000
0000000000
0000000000
0010000000
0000000000
0000000000
0000000000
0100000000
0000000000
0000000000
0000000000
0010000000
0000000000
0000000000
0000000000
1000000000
0000000000
0000000000
0000000000
0010000000
0000000000
0000000000
0000000000
1000000000
0000000000
0000000000
0000000000
0000000000
0000000000
0000000000
0001000000
0000000000
0000000000
0000000000
0000000000
0000000000
0001000000
0000000000
0000000000
,  
0000000000
1001000000
0000000000
0000000000
0002000000
0000000000
0100000000
0000000000
1003000000
0000000000
0001000000
0000000000
0200000000
0000000000
0001000000
0000000000
,  
0300100000
0100000000
0001000000
0000000000
0000100000
0000000000
0000010000
0000100000
,  
0000001000
0000000000
0002001000
0000000000
0003010000
0001000000
0000001000
0000010000
,  
0000000100
0000000000
0000000000
0000000000
0000020100
0000000000
0000000000
0000000000
0000030010
0000000000
0000000000
0000010000
0000000000
0000000000
0000000001
0000000000
,  
0000000000
0000010000
0000000000
0000000000
0000010002
0000000000
0000000000
0000000000
0000001000
0000000000
0000001003
0000000000
0000000001
0000000000
0000000010
0000000000
,  
0000000100
0000000000
0000000000
0000000000
0000002100
0000000000
0000000000
0000000001
0000000000
0000003001
0000000000
0000000000
0000001000
0000000000
0000000010
0000000000
,  
0000001000
0000000000
0000000010
0000000000
0000020010
0000000000
0000000000
0000000100
0000000000
0000000100
0000000000
0000030100
0000000000
0000010100
0000000000
0000000000
,  
0000010000
0000000000
0000000001
0000000000
0000010002
0000000000
0000000000
0000000100
0000000000
0000000100
0000000000
0000000103
0000000000
0000000101
0000000000
0000000000
,  
0000000001
0000000000
0000010000
0000000000
0000010020
0000000000
0000000000
0000000100
0000000000
0000000100
0000000000
0000000130
0000000000
0000000110
0000000000
0000000000
,  
0000000010
0000000000
0000001000
0000000000
0000002100
0000000000
0000000000
0000000100
0000000000
0000000100
0000000000
0000003100
0000000000
0000001100
0000000000
0000000000
,  
0000001000
0000010000
0000110000
0000000000
0000000000
0000000000
0000000000
0000000000
;


#NOTEDATA:;
#CHARTNAME:FBC Nightmare;
#STEPSTYPE:pump-double;
#DESCRIPTION:D15 UCS;
#DIFFICULTY:Edit;
#METER:15;
#RADARVALUES:0.615578,0.478523,0.580493,0.011163,0.820505,329.000000,52.000000,1.000000,0.000000,4.000000,0.000000,0.000000,0.000000,0.615578,0.478523,0.580493,0.011163,0.820505,329.000000,52.000000,1.000000,0.000000,4.000000,0.000000,0.000000,0.000000;
#CREDIT:Funbox Collection;
#OFFSET:-0.760000;
#BPMS:0.000000=83.000000
,99.125000=332.000000
,102.125000=83.000000
;
#STOPS:8.000000=0.361446
,12.250000=0.361445
,14.500000=0.361445
,24.750000=0.361446
,29.000000=0.361446
,31.250000=0.180723
,68.125000=1.445782
,102.125000=0.361450
;
#DELAYS:;
#WARPS:7.000000=0.750000
,11.250000=0.750000
,13.500000=0.750000
,23.750000=0.750000
,28.000000=0.750000
,30.250000=0.500000
;
#TIMESIGNATURES:0.000000=4=4
;
#TICKCOUNTS:0.000000=4
;
#COMBOS:0.000000=1
;
#SPEEDS:0.000000=1.000000=0.000000=0
;
#SCROLLS:0.000000=1.000000
;
#FAKES:;
#LABELS:0.000000=Song Start
;
#NOTES:
0200000000
0000000000
0000000000
0300000000
0100000000
0000100000
0010000000
0000100000
0010000000
0000100000
0001000000
0000100000
0001000000
0000100000
0000001000
0000010000
,
0000001000
0000000000
0000000000
0000000000
0000000000
0000000000
0000000000
0000000000
0000000000
0000000000
0000000000
0000000000
0000010000
0000000000
0000000000
0000000000
0000000000
0000000000
0000000000
0000000000
0000000000
0000000000
0000000000
0000000000
0000001000
0000000000
0000000000
0000000000
0000000000
0000000000
0000000000
0000000000
0000000000
0000000000
0000000000
0000000000
0000000100
0000000000
0000000000
0000000000
0000000000
0000000000
0000000000
0000000000
0000000000
0000000000
0000000000
0000000000
0000000010
0000000000
0000000000
0000000000
0000000000
0000000000
0000000000
0000000000
0000000000
0000000000
0000000000
0000000000
0000000001
0000000000
0000000000
0000000000
0000000000
0000000000
0000000000
0000000000
0000000000
0000000000
0000000000
0000000000
0000000010
0000000000
0000000000
0000000000
0000000000
0000000000
0000000000
0000000000
0000000000
0000000000
0000000000
0000000000
0000000100
0000000000
0000000000
0000000000
0000000000
0000000000
0000000000
0000000000
0000000000
0000000000
0000000000
0000000000
0000001000
0000000000
0000000000
0000000000
0000000000
0000000000
0000000000
0000000000
0000000000
0000000000
0000000000
0000000000
0000010000
0000000000
0000000000
0000000000
0000000000
0000000000
0000000000
0000000000
0000000000
0000000000
0000000000
0000000000
0000100000
0000000000
0000000000
0000000000
0000000000
0000000000
0000000000
0000000000
0000000000
0000000000
0000000000
0000000000
0001000000
0000000000
0000000000
0000000000
0000000000
0000000000
0000000000
0000000000
0000000000
0000000000
0000000000
0110000000
0000000000
0000000000
0000000000
0000000000
0000000000
0000000000
0000000000
0000000000
0000000000
0000000000
0000000000
0000000000
0000000000
0000000000
0000000000
0000000000
0000000000
0000000000
0000000000
0000000000
0000000000
0000000000
0000000000
0000000000
0000000000
0000000000
0000000000
0000000000
0000000000
0000000000
0000000000
0000000000
0000000000
0000000000
0000000000
0000000000
0000000000
0000000000
0000000000
0000000000
0000000000
0000000000
0000000000
0000000000
0000000000
0000000000
0000000000
0000000000
,
0000000000
0000000000
0000000000
0000000000
0000000000
0000000000
0000000000
0000000000
0000000000
0000000000
0000000000
0000000000
0001000000
0000000000
0000000000
0000000000
0000000000
0000000000
0000000000
0000000000
0000000000
0000000000
0000000000
0000000000
0001000000
0000000000
0000000000
0000000000
0000000000
0000000000
0000000000
0000000000
0000000000
0000000000
0000000000
0000000000
0000100000
0000000000
0000000000
0000000000
0000000000
0000000000
0000000000
0000000000
0000000000
0000000000
0000000000
0000000000
0010000000
0000000000
0000000000
0000000000
0000000000
0000000000
0000000000
0000000000
0000000000
0000000000
0000000000
0000000000
1000000000
0000000000
0000000000
0000000000
0000000000
0000000000
0000000000
0000000000
0000000000
0000000000
0000000000
0000000000
0100000000
0000000000
0000000000
0000000000
0000000000
0000000000
0000000000
0000000000
0000000000
0000000000
0000000000
0000000000
0010000000
0000000000
0000000000
0000000000
0000000000
0000000000
0000000000
0000000000
0000000000
0000000000
0000000000
0000000000
0001000000
0000000000
0000000000
0000000000
0000000000
0000000000
0000000000
0000000000
0000000000
0000000000
0000000000
0000000000
0000100000
0000000000
0000000000
0000000000
0000000000
0000000000
0000000000
0000000000
0000000000
0000000000
0000000000
0000000000
0001000000
0000000000
0000000000
0000000000
0000000000
0000000000
0000000000
0000000000
0000000000
0000000000
0000000000
0000000000
0000010000
0000000000
0000000000
0000000000
0000000000
0000000000
0000000000
0000000000
0000000000
0000000000
0000000000
0000000000
0000000100
0000000000
0000000000
0000000000
0000000000
0000000000
0000000000
0000000000
0000000000
0000000000
0000000000
0000010100
0000000000
0000000000
0000000000
0000000000
0000000000
0000000000
0000000000
0000000000
0000000000
0000000000
0000000000
0000000000
0000000000
0000000000
0000000000
0000000000
0000000000
0000000000
0000000000
0000000000
0000000000
0000000000
0000000000
0000000000
0000000000
0000000000
0000000000
0000000000
0000000000
0000000000
0000000000
0000000000
0000000000
0000000000
0000000000
0000000000
,
0000000000
0000000000
0000000000
0000000000
0000000000
0000000000
0000000000
0000000000
0000000000
0000000000
0000000000
0000000000
0000000000
0000000000
0000000000
0000000000
0000000000
0000000000
0000000000
0000000000
0000000000
0000000000
0000000000
0000000000
0000000001
0000000000
0000000000
0000000000
0000000000
0000000000
0000000000
0000000000
0000000000
0000000000
0000000000
0000000000
0000000010
0000000000
0000000000
0000000000
0000000000
0000000000
0000000000
0000000000
0000000000
0000000000
0000000000
0000000000
0000001000
0000000000
0000000000
0000000000
0000000000
0000000000
0000000000
0000000000
0000000000
0000000000
0000000000
0000000000
0000010000
0000000000
0000000000
0000000000
0000000000
0000000000
0000000000
0000000000
0000000000
0000000000
0000000000
0000110000
0000000000
0000000000
0000000000
0000000000
0000000000
0000000000
0000000000
0000000000
0000000000
0000000000
0000000000
0000000000
0000000000
0000000000
0000000000
0000000000
0000000000
0000000000
0000000000
0000000000
0000000000
0000000000
0000000000
0000000000
0000000000
0000000000
0000000000
0000000000
0000000000
0000000000
0000000000
0000000000
0000000000
0000000000
0000000000
0000000000
0000000000
0000000000
0000000000
0000000000
0000000000
0000000000
0000000000
0000000000
0000000000
0000000000
0000000000
0000000000
0000000000
0000000000
0000000000
0000000000
0000000000
0000000000
0000000000
0000000000
0000000000
0000000000
0000000000
0000000000
0001000000
0000000000
0000000000
0000000000
0000000000
0000000000
0000000000
0000000000
0000000000
0000000000
0000000000
0000000000
0010000000
0000000000
0000000000
0000000000
0000000000
0000000000
0000000000
0000000000
0000000000
0000000000
0000000000
0000000000
0100000000
0000000000
0000000000
0000000000
0000000000
0000000000
0000000000
0000000000
0000000000
0000000000
0000000000
0000000000
1000000000
0000000000
0000000000
0000000000
0000000000
0000000000
0000000000
0000000000
0000000000
0000000000
0000000000
0000000000
0010000000
0000000000
0000000000
0000000000
0000000000
0000000000
0000000000
0000000000
0000000000
0000000000
0000000000
0000000000
,
0000000000
0000100000
0000000000
0000010000
0000000100
0000000000
0000000001
0000000010
0000000000
0000000100
0000000000
0000010000
0000001000
0000000000
0000100000
0001000000
,
0000000000
0000000000
0000000000
0000000000
0000000000
0000000000
0000000000
0000000000
0000000000
0000000000
0000000000
0000000000
0100000000
0000000000
0000000000
0000000000
0000000000
0000000000
0000000000
0000000000
0000000000
0000000000
0000000000
0000000000
0000000000
0000000000
0000000000
0000000000
0000000000
0000000000
0000000000
0000000000
0000000000
0000000000
0000000000
0000000000
0010000000
0000000000
0000000000
0000000000
0000000000
0000000000
0000000000
0000000000
0000000000
0000000000
0000000000
0000000000
0010000000
0000000000
0000000000
0000000000
0000000000
0000000000
0000000000
0000000000
0000000000
0000000000
0000000000
0000000000
0000000000
0000000000
0000000000
0000000000
0000000000
0000000000
0000000000
0000000000
0000000000
0000000000
0000000000
0000000000
1000000000
0000000000
0000000000
0000000000
0000000000
0000000000
0000000000
0000000000
0000000000
0000000000
0000000000
0000000000
1000000000
0000000000
0000000000
0000000000
0000000000
0000000000
0000000000
0000000000
0000000000
0000000000
0000000000
0000000000
0000000000
0000000000
0000000000
0000000000
0000000000
0000000000
0000000000
0000000000
0000000000
0000000000
0000000000
0000000000
0010000000
0000000000
0000000000
0000000000
0000000000
0000000000
0000000000
0000000000
0000000000
0000000000
0000000000
0000000000
0000000000
0000000000
0000000000
0000000000
0000000000
0000000000
0000000000
0000000000
0000000000
0000000000
0000000000
0000000000
0101000000
0000000000
0000000000
0000000000
0000000000
0000000000
0000000000
0000000000
0000000000
0000000000
0000000000
0000000000
0000000000
0000000000
0000000000
0000000000
0000000000
0000000000
0000000000
0000000000
0000000000
0000000000
0000000000
0000000000
0010000000
0000000000
0000000000
0000000000
0000000000
0000000000
0000000000
0000000000
0000000000
0000000000
0000000000
0000000000
0000100000
0000000000
0000000000
0000000000
0000000000
0000000000
0000000000
0000000000
0000000000
0000000000
0000000000
0001011000
0000000000
0000000000
0000000000
0000000000
0000000000
0000000000
0000000000
0000000000
0000000000
0000000000
0000000000
0000000000
,
0000000000
0000000000
0000000000
0000000000
0000000000
0000000000
0000000000
0000000000
0000000000
0000000000
0000000000
0000000000
0000000000
0000000000
0000000000
0000000000
0000000000
0000000000
0000000000
0000000000
0000000000
0000000000
0000000000
0000000000
0000000000
0000000000
0000000000
0000000000
0000000000
0000000000
0000000000
0000000000
0000000000
0000000000
0000000000
0000000000
0000000000
0000000000
0000000000
0000000000
0000000000
0000000000
0000000000
0000000000
0000000000
0000000000
0000000000
0000000000
0100000000
0000000000
0000000000
0000000000
0000000000
0000000000
0000000000
0000000000
0000000000
0000000000
0000000000
0000000000
0010000000
0000000000
0000000000
0000000000
0000000000
0000000000
0000000000
0000000000
0000000000
0000000000
0000000000
0000000000
0001000000
0000000000
0000000000
0000000000
0000000000
0000000000
0000000000
0000000000
0000000000
0000000000
0000000000
0000000000
0000001000
0000000000
0000000000
0000000000
0000000000
0000000000
0000000000
0000000000
0000000000
0000000000
0000000000
0000000000
0000000100
0000000000
0000000000
0000000000
0000000000
0000000000
0000000000
0000000000
0000000000
0000000000
0000000000
0000000000
0000000010
0000000000
0000000000
0000000000
0000000000
0000000000
0000000000
0000000000
0000000000
0000000000
0000000000
0000000000
0000000001
0000000000
0000000000
0000000000
0000000000
0000000000
0000000000
0000000000
0000000000
0000000000
0000000000
0000000000
0000000100
0000000000
0000000000
0000000000
0000000000
0000000000
0000000000
0000000000
0000000000
0000000000
0000000000
0000000000
0000010000
0000000000
0000000000
0000000000
0000000000
0000000000
0000000000
0000000000
0000000000
0000000000
0000000000
0000000000
0001000000
0000000000
0000000000
0000000000
0000000000
0000000000
0000000000
0000000000
0000000000
0000000000
0000000000
0000000000
0010000000
0000000000
0000000000
0000000000
0000000000
0000000000
0000000000
0000000000
0000000000
0000000000
0000000000
0000000000
0000100000
0000000000
0000000000
0000000000
0000000000
0000000000
0000000000
0000000000
0000000000
0000000000
0000000000
0001011000
,
0000000000
0000000000
0000000000
0000000000
0000000000
0000000000
0000000000
0000000000
0000000000
0000000000
0000000000
0000000000
0000000000
0000000000
0000000000
0000000000
0000000000
0000000000
0000000000
0000000000
0000000000
0000000000
0000000000
0000000000
0000000000
0000000000
0000000000
0000000000
0000000000
0000000000
0000000000
0000000000
0000000000
0000000000
0000000000
0000000000
0000000000
0000000000
0000000000
0000000000
0000000000
0000000000
0000000000
0000000000
0000000000
0000000000
0000000000
0000000000
0000000000
0000000000
0000000000
0000000000
0000000000
0000000000
0000000000
0000000000
0000000000
0000000000
0000000000
0000000000
1000000000
0000000000
0000000000
0000000000
0000000000
0000000000
0000000000
0000000000
0000000000
0000000000
0000000000
0000000000
0010000000
0000000000
0000000000
0000000000
0000000000
0000000000
0000000000
0000000000
0000000000
0000000000
0000000000
0000000000
0000100000
0000000000
0000000000
0000000000
0000000000
0000000000
0000000000
0000000000
0000000000
0000000000
0000000000
0000000000
0000010000
0000000000
0000000000
0000000000
0000000000
0000000000
0000000000
0000000000
0000000000
0000000000
0000000000
0001101000
0000000000
0000000000
0000000000
0000000000
0000000000
0000000000
0000000000
0000000000
0000000000
0000000000
0000000000
0000000000
0000000000
0000000000
0000000000
0000000000
0000000000
0000000000
0000000000
0000000000
0000000000
0000000000
0000000000
0000000000
0000000000
0000000000
0000000000
0000000000
0000000000
0000000000
0000000000
0000000000
0000000000
0000000000
0000000000
0000000000
0000000000
0000000000
0000000000
0000000000
0000000000
0000000000
0000000000
0000000000
0000000000
0000000000
0000000000
0000000000
0000000000
0000000000
0000000000
0000000000
0000000000
0000000000
0000000000
0000000000
0000000000
0000000000
0000000000
0000000000
0000100000
0000000000
0000000000
0000000000
0000000000
0000000000
0000000000
0000000000
0000000000
0000000000
0000000000
0000000000
0010000000
0000000000
0000000000
0000000000
0000000000
0000000000
0000000000
0000000000
0000000000
0000000000
0000000000
0000000000
,
0001000000
0000100000
0000010000
0000001000
0000000100
0000000000
0010000000
0010000000
0010000000
0010000000
0010000000
0010000000
0010000000
0010000000
0010000000
0000100000
,
1000000000
0010000000
0100000000
0010000000
0100000000
0010000000
0001001000
0000000000
0000100000
0000000000
0001001000
0000000000
0000010000
0000000000
0001001000
0000000000
,
0010000000
0000001000
0010000000
0000010000
0010000000
0000010000
0000110000
0000000000
0000001000
0000000000
0000110000
0000000000
0001000000
0000000000
0000110000
0000000000
,
0000000100
0001000000
0000000100
0000100000
0000000100
0001000000
0000000100
0000000000
0000010000
0000000100
0000000001
0000001000
0000010000
0001000000
0000100000
0010000000
,
1000000000
0010000000
0001000000
0000001000
0000000100
0000000001
0001001000
0000000000
0000000000
0010000000
0011000000
0000000000
0000000000
0000000100
0000001100
0000000000
,
0000000000
0000000000
0100000000
0010000000
0000100000
0000010000
0001001000
0000000000
0000000000
0000000000
0000000100
0000000100
0000000100
0000000100
0000001010
0000000000
,
0000110000
0000000000
0101000000
0010000000
0000100000
0000010000
0001001000
0000000000
0000000000
0000000000
0000000100
0000000100
0000000100
0000000100
0000001000
0000010000
,
0000100000
0001000000
0010000000
0000010000
0000000100
0000000010
0000001001
0000000000
0000000000
0000000000
0100000000
0010000000
0001000000
0000010000
0000000100
0000000000
,
0000000101
0000000000
0000010001
0000000000
0000110000
0000000000
1010100000
0000000000
0000000000
0000000000
0100000000
0100000000
0000000010
0000000010
1000000000
1000000000
,
0000010100
0000000000
0101000000
0000000000
0000110000
0000000000
0000001010
0000000000
0000000000
0000000010
0000000001
0000000100
0000010000
0000000000
1100000000
0000000000
,
0000000000
1000100000
0000001000
0000010001
0001000000
1000100000
0000001000
0000010001
,
0001000000
1100000000
0010000000
0001100000
0000000000
0000011000
0000000100
0000000011
,
0000000000
0000000000
0010000000
0000000000
0000000000
0000000000
0000000100
0000000000
0000001000
0000000000
0010000000
0000000000
0000001000
0001000000
0000000000
0001001000
,
0000010000
0000100000
0010000100
0000000000
0000000000
0000000000
0100000000
0100000000
0000000010
0000000010
1000000000
0000000000
0000000001
0000000000
0000001000
0001000000
,
0000010000
0000100000
0010000100
0000000000
0000000000
0000000000
0100000000
0100000000
0001000000
0001000000
0000100000
0000100000
0000010000
0000010000
0000001000
0000001000
,
0000000100
0000000100
0000000011
0000000000
0000000000
0000000000
1000000000
1000000000
0000000001
0000000001
1000000100
0000000000
0010000000
0000000000
0000110000
0010000000
,
0000000100
0010000000
0010000100
0000000000
0000000000
0000000000
1000000000
0010000000
0000100000
0000001000
0000000100
0000000010
0000000001
0000000000
0000000000
0000000000
,
0000000000
0000000000
0000000000
0000000000
0000000000
0000000000
0000000000
0000000000
0000000000
0000100000
0010000000
0000100000
0100000000
0010000000
0100000000
0001000000
,
0100000000
0010000000
0001000000
0000100000
0010000000
0000100000
0001000000
0000001000
0000010000
0000000100
0000000001
0000000010
0000001000
0000000100
0000010000
0000000001
,
0000000100
0000000010
0000001000
0000000100
0000010000
0000000100
0000000000
0000010001
0000000000
0000001000
0000000000
0001000000
0000000000
0000010000
0000100000
0000010000
,
0000100000
0000000100
0000000000
0010000000
0000001000
0001001000
0000000000
0001010000
0000000000
1000000000
0100000000
0010000000
0001000000
0000100000
0000010000
0000001000
,
0000000100
0000000010
0000000001
0000000100
0000000010
0000001001
0000000100
0000010010
0000000001
0000001100
0000000000
0000000000
0000000000
0000000000
0000000000
0000000000
;


#NOTEDATA:;
#STEPSTYPE:pump-double;
#DESCRIPTION:D19 UCS;
#DIFFICULTY:Edit;
#METER:20;
#RADARVALUES:1.000000,1.000000,1.000000,0.893066,1.000000,486.000000,175.000000,80.000000,0.000000,54.000000,0.000000,0.000000,0.000000,1.000000,1.000000,1.000000,0.893066,1.000000,486.000000,175.000000,80.000000,0.000000,54.000000,0.000000,0.000000,0.000000;
#CREDIT:KahruNYA;
#OFFSET:-0.760000;
#BPMS:0.000000=83.000000
;
#STOPS:;
#DELAYS:;
#WARPS:;
#TIMESIGNATURES:0.000000=4=4
;
#TICKCOUNTS:0.000000=16
;
#COMBOS:0.000000=1
;
#SPEEDS:0.000000=1.000000=0.000000=0
,99.500000=1.330000=1.500000=0
;
#SCROLLS:0.000000=1.000000
,32.250000=0.000000
,32.500000=1.000000
,32.750000=0.000000
,33.000000=1.000000
,33.250000=0.000000
,33.500000=1.000000
,33.750000=0.000000
,34.000000=1.000000
,34.250000=0.000000
,34.500000=1.000000
,52.000000=1.500000
,53.000000=1.000000
,56.000000=1.500000
,57.000000=1.000000
,60.000000=1.500000
,61.000000=1.000000
,64.000000=1.500000
,64.500000=1.000000
,66.500000=100.000000
,66.625000=0.500000
,68.000000=1.000000
,85.000000=1.500000
,86.000000=1.000000
,89.000000=1.500000
,90.000000=1.000000
,93.000000=1.500000
,94.000000=1.000000
,97.000000=1.500000
,97.500000=1.000000
,116.500000=0.000000
,122.500000=100.000000
,122.750000=1.000000
;
#FAKES:;
#LABELS:0.000000=Song Start
;
#NOTES:
0000000000
0000000000
0000000000
0000000000
,
0000000000
0000000000
0000000000
0000000000
0000000000
0000000000
0000000000
0000000000
0000000000
0000000000
0000000000
0000000000
0000000000
0000000000
0000000000
0000000000
0000000000
0000000000
0000000000
0000000000
0000000000
0000000000
0000000000
0000000000
0020202000
0000000000
0000000000
0000000000
0000000000
0030303000
0000000000
0000000000
,
0001010100
0000000000
0000010000
0000000000
0010000000
0000000000
0001000000
0000000000
0011100000
0000000000
0000001000
0000000000
0001000000
0000000000
0000010000
0000000000
0000001000
0000000100
0000010000
0000000100
0000001000
0000000010
0000000100
0000000001
0000002202
0000000000
0000000000
0000000000
0000000000
0000003303
0000000000
0000000000
,
0000001000
0000000100
0000010000
0000000000
0000001000
0000000000
0001000000
0000000000
0002220000
0000000000
0000000000
0000000000
0000000000
0003330000
0000000000
0000000000
0001110000
0000000000
0001000000
0000000000
0000001000
0000000000
0000010000
0000000000
0000000100
0000001000
0000000010
0000000100
0000000001
0000010000
0000000100
0000001000
,
0000010100
0000000000
0001000000
0000000000
0000010100
0000000000
0000001000
0000000000
0001010100
0000000000
0000100000
0000000000
0010101000
0000000000
0000010000
0000000000
0011000000
0000000000
0000010100
0000000000
0001000000
0000010000
0000100000
0000000000
0000001100
0000000000
0000000000
0000000000
0000101100
0000000000
0000000000
0000000000
,
0000010101
0000000000
0000000100
0000000000
0000100000
0000000000
0000010000
0000000000
0010010100
0000000000
0010000000
0000000000
0000110000
0000000000
0010000000
0000000000
1010100000
0000000000
0000100000
0000000000
0001000000
0000000000
0000010000
0000000000
0002020200
0000000000
0000000000
0000000000
0000000000
0003030300
0000000000
0000000000
,
0010101000
0000000000
0000100000
0000000000
0000000100
0000000000
0000001000
0000000000
0000011100
0000000000
0001000000
0000000000
0000001000
0000000000
0000100000
0000000000
0001000000
0010000000
0000100000
0010000000
0001000000
0100000000
0010000000
1000000000
2022000000
0000000000
0000000000
0000000000
0000000000
3033000000
0000000000
0000000000
,
0001000000
0010000000
0000100000
0000000000
0001000000
0000001000
0000100000
0000000000
0000222000
0000000000
0000000000
0000000000
0000000000
0000333000
0000000000
0000000000
0000001000
0000010000
0000000100
0000000000
0000001000
0000000000
0000010000
0000000000
0001010000
0000000000
0000100000
0000000000
0000101000
0000000000
0000010000
0000000000
,
0002020200
0000000000
0000000000
0000000000
0000000000
0000000000
0000000000
0000000000
0000000000
0000000000
0000000000
0000000000
0003030300
0000000000
0000000000
0000000000
0000000000
0000000000
0000000000
0000000000
0010101000
0000000000
0000000000
0000000000
0001010100
0000000000
0000010000
0000100000
0001000000
0000000000
0010000000
0000000000
,
0000110000
0000000000
0010000000
0000000000
0000100000
0000000000
1000000000
0000000000
0010100000
0000000000
1000000000
0000000000
0000100000
0000000000
0010000000
0000000000
0000110000
0000000000
0010000000
0000000000
0001000000
0000100000
0000010000
0000000000
0001000000
0000000000
0000001000
0000000000
0000010000
0000000000
0000000100
0000000000
,
0000110000
0000000000
0000000100
0000000000
0000010000
0000000000
0000000001
0000000000
0000010100
0000000000
0000000001
0000000000
0000010000
0000000000
0000000100
0000000000
0000110000
0000000000
0000000100
0000000000
0000001000
0000010000
0000100000
0000000000
0000001000
0000000000
0001000000
0000000000
0000100000
0010000000
0001000000
0000000000
,
0022200000
0000000000
0000000000
0000000000
0000000000
0033300000
0000000000
0000000000
0010100000
0000000000
0000001100
0000000000
0000010000
0000000100
0000001000
0000000000
0000022200
0000000000
0000000000
0000000000
0000000000
0000033300
0000000000
0000000000
0000010100
0000000000
0011000000
0000000000
0000010000
0000000000
0000100000
0000000000
,
0000001100
0000000000
0000000000
0000000000
0000100000
0000000000
0000010000
0000000000
0011000000
0000000000
0000010100
0000000000
0000100000
0000000000
0001000000
0000000000
0010100000
0000000000
0000001100
0000000000
0000100000
0000000000
0000010000
0000000000
0001000000
0000000000
0000100000
0010000000
0001000000
0000000000
0000100000
0000000000
,
0000001100
0010100000
0000001100
0010100000
0000001100
0010100000
0000001100
0010100000
0000001100
0000000000
0000010000
0000000000
0000000100
0000000000
0000001000
0000000000
0000010100
0000000000
0001000000
0000000000
0000010100
0000000000
0000001000
0000000000
0000010000
0000000000
0000100000
0000001000
0000010000
0000000000
0000000100
0000000000
,
0000110000
0000001100
0000110000
0000001100
0000110000
0000001100
0000110000
0000001100
0000110000
0000000000
0000001000
0000000000
0001000000
0000000000
0000110000
0000000000
0011000000
0000000000
0000100000
0000000000
0010000000
0000000000
0001000000
0000000000
0010100000
0000000000
0000001000
0000100000
0000010000
0000000000
0000001000
0000000000
,
0000010100
0011000000
0000010100
0011000000
0000010100
0011000000
0000010100
0011000000
0000010100
0000000000
0000001000
0000000000
0000010000
0000000000
0000100000
0000000000
0010101000
0000000000
0000000000
0000000000
0001010100
0000000000
0000000000
0000000000
0010101100
0000000000
0000100000
0000010000
0001000000
0000000000
0000100000
0000000000
,
0011000000
0000110000
0011000000
0000110000
0011000000
0000000000
0000010000
0000000000
0010100000
0000000000
0000001100
0000000000
0000110000
0000000000
0001001000
0000000000
0010100000
0000000000
0000010100
0000000000
0002020200
0003030300
0000000000
0000000000
0000000000
0000000000
0000000000
0000000000
0000000000
0000000000
0000000000
0000000000
,
0010100000
0000001000
0000000000
0000000000
0001001000
0000000000
0000000000
0000000000
0000110100
0000000000
0000000000
0000000000
0010110000
0000000000
0000000000
0000000000
0000111000
0000000000
0000001000
0000000000
0000010000
0000000000
0000000100
0000000000
0000001000
0000000100
0000001000
0000000000
0000010000
0000000000
0000100000
0000000000
,
0010110000
0000010000
0001000000
0000100000
0011000000
0001000000
0000010000
0000100000
0000001100
0000001000
0000100000
0000010000
0001000000
0000010000
0010100000
0001000000
,
0010100000
0000000000
0000001000
0000000000
0000110000
0000000000
0000000100
0000000000
0000020000
0000000200
0000000002
0000000300
0000000003
0000000000
0000030000
0000000000
0000001000
0000000000
0001000000
0000000000
0000110000
0000000000
0010000000
0000000000
0000200000
0020000000
2000000000
0030000000
3000000000
0000000000
0000300000
0000000000
,
0001000000
0000001000
0000110000
0000000100
0000101100
0000100000
0000010000
0001000000
0011010000
0000010000
0000100000
0000001000
0010101000
0000000000
0001010100
0000000000
,
0010101100
0000000000
0000100000
0000010000
0000001000
0000000000
0000000100
0000000000
0000110000
0000000110
0000110000
0000000110
0000110000
0000000110
0000110000
0000000110
0000110000
0000000000
0000001000
0000000000
0001000000
0000000000
0000110000
0000000000
0011000000
0000000000
0000010100
0000000000
0000100000
0000000000
0001000000
0000000000
,
0010100000
0000000000
0000001000
0000100000
0001000000
0000000000
0010000000
0000000000
0000110000
0001001000
0000110000
0001001000
0000110000
0001001000
0000110000
0001001000
0000110000
0000000000
0010000000
0000000000
0001000000
0000000000
0110000000
0000000000
0000100000
0000000000
1000000000
0000000000
0011000000
0000000000
0000100000
0000000000
,
0000000000
0000000000
0000100000
0000001000
0001000000
0000000000
0000010000
0000000000
0110000000
0000110000
0110000000
0000110000
0110000000
0000110000
0110000000
0000110000
0110000000
0000000000
0001000000
0000000000
0000100000
0000000000
0001001000
0000000000
0000110000
0000000000
0000001100
0000000000
0001000000
0000000000
0000010100
0000000000
,
0011000000
0000000000
0000010000
0000100000
0000001000
0000000000
0000010000
0000000000
0001001000
0000110000
0001001000
0000110000
0001001000
0000000000
0000010000
0000000000
0000000100
0000000000
0000001000
0000000000
0000010100
0000000000
0011000000
0000000000
0000010000
0000000000
0000100000
0000000000
0002000000
0000000000
0003000000
0000000000
,
0000100000
0000000000
0000010000
0000000000
0000002000
0000000000
0000003000
0000000000
0000000010
0000000100
0000000001
0000001000
0000000001
0000000100
0000000001
0000010000
0000000100
0000000000
0000001000
0000000000
0000010100
0001000000
0000010000
0000000000
0000100000
0000000000
0000001000
0000010000
0000000100
0000010000
0000001000
0000100000
,
0000020000
0000000000
0000000000
0000000000
0011030000
0000000000
0000000000
0000000000
0001000000
0000001000
0000100000
0000001000
0001000000
0000010000
0000100000
0001000000
0010000000
0000000000
0000110000
0010000000
0000100000
0000000000
1000000000
0000000000
0010000000
0100000000
0001000000
0010000000
0000100000
1000000000
0010000000
1000000000
,
0000200000
0000000000
0000000000
0000000000
0011300000
0000000000
0000000000
0000000000
0000001000
0001000000
0000010000
0000100000
0000001000
0000010000
0000000100
0000010000
0000001000
0000000000
0010100000
0000001000
0000100000
0000000000
0000010000
0000000000
0001000000
0000100000
0010000000
0000100000
0001000000
0000001000
0000100000
0000010000
,
0000002000
0000000000
0000000000
0000000000
0000013100
0000000000
0000000000
0000000000
0001000000
0000001000
0000100000
0000001000
0001000000
0000010000
0000001000
0000000100
0000010000
0000000100
0000001000
0000000010
0000000100
0000000001
0000010000
0000000100
0000010000
0000000010
0000010000
0000000100
0000001000
0000010000
0000100000
0000000000
,
0010101000
0000000000
0000000000
0000000000
0002020200
0003030300
0000000000
0000000000
0002020200
0003030300
0000000000
0000000000
0002020200
0003030300
0000000000
0000000000
0002020200
0003030300
0000000000
0000000000
0002020200
0003030300
0000000000
0000000000
0002020200
0003030300
0000000000
0000000000
0002020200
0003030300
0000000000
0000000000
,
0002020200
0003030300
0000000000
0000000000
0002020200
0003030300
0000000000
0000000000
0002020200
0003030300
0000000000
0000000000
0002020200
0003030300
0000000000
0000000000
0002020200
0003030300
0000000000
0000000000
0002020200
0003030300
0000000000
0000000000
0000000000
0000000000
0000000000
0000000000
0000000000
0000000000
0000000000
0000000000
;


